# Anisotropy factors from He & Keek 2016 for case c in Fig. 8
# Columns: inclination angle (deg), 1/xi_d, 1/xi_r, 1/xi_p
# Note that 1/xi_b = 1/xi_d + 1/xi_r
0.000000000000000000e+00 9.999995392358922430e-01 1.057324118421777648e+00 2.142468362771044355e+00
1.000000000000000000e+00 9.999667997540085951e-01 1.057092141480278302e+00 2.141983447990977840e+00
2.000000000000000000e+00 9.998659808283443251e-01 1.056396613976557486e+00 2.140529189552053957e+00
3.000000000000000444e+00 9.996932006904302170e-01 1.055238108788944862e+00 2.138107044597862050e+00
4.000000000000000000e+00 9.994446066436437626e-01 1.053617737623091966e+00 2.134719439834916521e+00
5.000000000000000000e+00 9.991163798017661524e-01 1.051537037254572260e+00 2.130369768735811853e+00
6.000000000000000888e+00 9.987047398041843937e-01 1.048997959467572683e+00 2.125062387628304794e+00
7.000000000000000000e+00 9.982059495019741657e-01 1.046002906312766711e+00 2.118802610675067921e+00
8.000000000000000000e+00 9.976163196091285545e-01 1.039836032043864433e+00 2.111547039331900688e+00
9.000000000000000000e+00 9.969322133132376695e-01 1.033988377487265131e+00 2.103366582295431275e+00
1.000000000000000000e+01 9.961500508399659948e-01 1.028526749996170331e+00 2.094270549442167617e+00
1.100000000000000000e+01 9.952663139657242919e-01 1.022917908835559997e+00 2.084258202863965348e+00
1.200000000000000178e+01 9.942775504729938207e-01 1.017021282393148152e+00 2.073336884316399065e+00
1.300000000000000000e+01 9.931803785428223730e-01 1.010842142230773399e+00 2.061517495065274375e+00
1.400000000000000000e+01 9.919714910790836671e-01 1.001846294298365914e+00 2.048669273814493152e+00
1.499999999999999822e+01 9.906476599591704790e-01 9.936957810248809864e-01 2.035012819647078253e+00
1.600000000000000000e+01 9.892057402058733739e-01 9.856227738496028401e-01 2.020521336792030276e+00
1.700000000000000000e+01 9.876426740752910494e-01 9.773908767444838830e-01 2.005193559465177522e+00
1.800000000000000000e+01 9.859554950557138930e-01 9.668498974630406195e-01 1.988843685084003443e+00
1.900000000000000000e+01 9.841413317725238308e-01 9.568837141009624014e-01 1.971762152171058435e+00
2.000000000000000000e+01 9.821974117942655624e-01 9.470693177196333190e-01 1.953926108541816697e+00
2.100000000000000000e+01 9.801210653351593027e-01 9.360029413807141596e-01 1.935176601202231117e+00
2.200000000000000000e+01 9.779097288494416063e-01 9.244453460434326475e-01 1.915631577548999376e+00
2.300000000000000000e+01 9.755609485130568581e-01 9.132973086741839053e-01 1.895440149177895828e+00
2.400000000000000355e+01 9.730723835883412498e-01 9.009999823545558062e-01 1.874367317294212132e+00
2.500000000000000000e+01 9.704418096674921612e-01 8.883903127117795950e-01 1.852577855921964334e+00
2.600000000000000000e+01 9.676671217907479861e-01 8.761621052824640765e-01 1.830216840748498219e+00
2.700000000000000000e+01 9.647463374353563159e-01 8.624408684469451192e-01 1.806915504219907875e+00
2.800000000000000000e+01 9.616775993715598325e-01 8.491634505812246658e-01 1.783127405619490125e+00
2.900000000000000355e+01 9.584591783819860211e-01 8.354579297291342410e-01 1.758655484452806617e+00
2.999999999999999645e+01 9.550894758409872454e-01 8.211605111315910532e-01 1.733484609997171244e+00
3.100000000000000000e+01 9.515670261506468108e-01 8.072799200896269012e-01 1.707909659744939246e+00
3.200000000000000000e+01 9.478904990303333999e-01 7.920882012540477746e-01 1.681430351536958856e+00
3.300000000000000000e+01 9.440587016568597889e-01 7.775430807251372256e-01 1.654706250052481398e+00
3.400000000000000000e+01 9.400705806524818353e-01 7.619555399556384723e-01 1.627160392894980712e+00
3.500000000000000000e+01 9.359252239181523603e-01 7.469357616304951319e-01 1.599407486778589016e+00
3.600000000000000000e+01 9.316218623096279572e-01 7.309733672830209805e-01 1.570882867041731856e+00
3.700000000000000000e+01 9.271598711542163862e-01 7.156226872731665800e-01 1.542220538828630083e+00
3.800000000000000000e+01 9.225387716061371757e-01 6.993863223246983285e-01 1.512819930987247208e+00
3.900000000000000000e+01 9.177582318386671156e-01 6.836980926277468340e-01 1.483373342796789673e+00
4.000000000000000000e+01 9.128180680714286233e-01 6.670341659627023745e-01 1.453151336827345208e+00
4.100000000000000000e+01 9.077182454313832416e-01 6.508597790635139990e-01 1.422855475010052162e+00
4.200000000000000000e+01 9.024588786462834911e-01 6.344199394185797702e-01 1.392208001497454939e+00
4.300000000000000000e+01 8.970402325695441270e-01 6.177456752665766437e-01 1.361171830127898774e+00
4.400000000000000000e+01 8.914627225356872575e-01 6.015297231551861579e-01 1.330183797708533344e+00
4.500000000000000000e+01 8.857269145457233872e-01 5.846778631901909939e-01 1.298625478274957112e+00
4.600000000000000000e+01 8.798335252820319585e-01 5.679802934569261330e-01 1.266996037522737595e+00
4.700000000000000000e+01 8.737834219525083546e-01 5.514777768158469762e-01 1.235351960856939879e+00
4.800000000000000711e+01 8.675776219639488307e-01 5.346512989499462298e-01 1.203340910788512907e+00
4.900000000000000000e+01 8.612172924248480133e-01 5.180808937601020236e-01 1.171370335620430581e+00
5.000000000000000000e+01 8.547037494779912148e-01 5.017329285966986019e-01 1.139478287026637560e+00
5.100000000000000000e+01 8.480384574634212136e-01 4.850249349100312357e-01 1.107283784803166471e+00
5.200000000000000000e+01 8.412230279125698651e-01 4.685213072129857936e-01 1.075128072010463898e+00
5.300000000000000000e+01 8.342592183745380918e-01 4.523679273689668046e-01 1.043181865879636350e+00
5.400000000000000000e+01 8.271489310757191848e-01 4.361374455981316678e-01 1.011245539739132004e+00
5.500000000000000000e+01 8.198942114141509752e-01 4.199453328483601644e-01 9.792757287870553773e-01
5.600000000000000000e+01 8.124972462901831616e-01 4.039839748757852456e-01 9.474543610147067030e-01
5.700000000000000711e+01 8.049603622752472543e-01 3.881934513704808354e-01 9.158349850520306479e-01
5.800000000000000711e+01 7.972860236207011120e-01 3.725318976149289418e-01 8.843726054457549113e-01
5.900000000000000711e+01 7.894768301089232221e-01 3.570964515169812725e-01 8.531854500668302199e-01
5.999999999999999289e+01 7.815355147490068433e-01 3.420078492315966057e-01 8.223195936740707035e-01
6.100000000000000000e+01 7.734649413196068579e-01 3.269300823009372303e-01 7.915648841571176764e-01
6.200000000000000000e+01 7.652681017616529413e-01 3.121470256450756264e-01 7.611345531341637827e-01
6.300000000000000000e+01 7.569481134238873477e-01 2.975898648914654943e-01 7.310266145563258933e-01
6.400000000000000000e+01 0.000000000000000000e+00 3.788561605356164253e-03 3.177401419259374277e-02
6.500000000000000000e+01 0.000000000000000000e+00 1.259591046570615646e-03 1.107112079371078833e-02
6.600000000000000000e+01 0.000000000000000000e+00 7.130267006225668664e-04 6.351023228012244413e-03
6.700000000000000000e+01 0.000000000000000000e+00 4.751791524001479469e-04 4.259924956864882470e-03
6.800000000000000000e+01 0.000000000000000000e+00 3.427978854038050602e-04 3.084669834973704713e-03
6.900000000000000000e+01 0.000000000000000000e+00 2.590869051201388925e-04 2.336840068776773957e-03
7.000000000000000000e+01 0.000000000000000000e+00 2.016961302743907637e-04 1.821926284683621049e-03
7.100000000000000000e+01 0.000000000000000000e+00 1.604564905380119943e-04 1.450770384076012628e-03
7.200000000000000000e+01 0.000000000000000000e+00 1.293381180050544592e-04 1.170056135068211654e-03
7.300000000000000000e+01 0.000000000000000000e+00 1.052140009184518508e-04 9.520689559901009168e-04
7.400000000000000000e+01 0.000000000000000000e+00 8.623010377756945696e-05 7.803152867181833334e-04
7.500000000000000000e+01 0.000000000000000000e+00 7.085175029678652257e-05 6.410603823141239809e-04
7.600000000000000000e+01 0.000000000000000000e+00 5.843377601312688683e-05 5.285488488980857186e-04
7.700000000000000000e+01 0.000000000000000000e+00 4.814130507535944358e-05 4.352693860034925798e-04
7.800000000000000000e+01 0.000000000000000000e+00 3.953564417076248092e-05 3.572686344484297689e-04
7.900000000000000000e+01 0.000000000000000000e+00 3.245591494206216351e-05 2.931107161387099826e-04
8.000000000000000000e+01 0.000000000000000000e+00 2.645124114124613608e-05 2.387139409601085399e-04
8.100000000000000000e+01 0.000000000000000000e+00 2.139226631725183543e-05 1.929057676176702710e-04
8.200000000000000000e+01 0.000000000000000000e+00 1.708520037118258398e-05 1.539339373707051227e-04
8.300000000000000000e+01 0.000000000000000000e+00 1.342442967925502335e-05 1.208374228453460808e-04
8.400000000000000000e+01 0.000000000000000000e+00 1.039728199143579418e-05 9.349984280766710160e-05
8.500000000000000000e+01 0.000000000000000000e+00 7.765571108116260820e-06 6.975965029427465389e-05
8.600000000000000000e+01 0.000000000000000000e+00 5.602115114500437750e-06 5.027182924895868518e-05
8.700000000000000000e+01 0.000000000000000000e+00 3.707747941207775316e-06 3.323213716672225165e-05
8.800000000000000000e+01 0.000000000000000000e+00 2.201196180086446386e-06 1.970780019076478400e-05
8.900000000000000000e+01 0.000000000000000000e+00 9.398538753893301870e-07 8.407658669891611322e-06
9.000000000000000000e+01 0.000000000000000000e+00 0.000000000000000000e+00 0.000000000000000000e+00
