# Anisotropy factors from He & Keek 2016 for case a in Fig. 8 (thin disk)
#
# From L. Keek <laurens.keek@nasa.gov>, 19.4.2017:
#   Please find attached the anisotropy factors from He & Keek 2016. I have
#   only included "case a", which is the flat thin disk. This is the same
#   geometry as in Fujimoto's paper, but our main improvement is a more
#   realistic emission pattern for atmospheres dominated by electron
#   scattering.
#
# Columns: inclination angle (deg), 1/xi_d, 1/xi_r, 1/xi_p
# Note that 1/xi_b = 1/xi_d + 1/xi_r
0.000000000000000000e+00 9.999995392358922430e-01 5.750051470435547651e-01 2.578619837487247768e+00
1.000000000000000000e+00 9.999667997540085951e-01 5.748642849911032027e-01 2.577962750366295186e+00
2.000000000000000000e+00 9.998659808283443251e-01 5.744418391277960056e-01 2.575992172289217841e+00
3.000000000000000444e+00 9.996932006904302170e-01 5.737382301743482182e-01 2.572710152316656451e+00
4.000000000000000000e+00 9.994446066436437626e-01 5.727541587942065471e-01 2.568120102894710488e+00
5.000000000000000000e+00 9.991163798017661524e-01 5.714906047875784045e-01 2.562226795875851781e+00
6.000000000000000888e+00 9.987047398041843937e-01 5.699488022571020940e-01 2.555036356955524557e+00
7.000000000000000000e+00 9.982059495019741657e-01 5.681302298395963790e-01 2.546556258529483863e+00
8.000000000000000000e+00 9.976163196091285545e-01 5.640500955587132159e-01 2.536729138193491995e+00
9.000000000000000000e+00 9.969322133132376695e-01 5.607319125575022101e-01 2.525665793776364687e+00
1.000000000000000000e+01 9.961500508399659948e-01 5.575006509385472819e-01 2.513355106565847485e+00
1.100000000000000000e+01 9.952663139657242919e-01 5.541819106084866497e-01 2.499803939236302508e+00
1.200000000000000178e+01 9.942775504729938207e-01 5.506906006159245637e-01 2.485023403312815571e+00
1.300000000000000000e+01 9.931803785428223730e-01 5.460297989241891248e-01 2.468917656108637448e+00
1.400000000000000000e+01 9.919714910790836671e-01 5.413310822239887354e-01 2.451633323427418798e+00
1.499999999999999822e+01 9.906476599591704790e-01 5.367712766980412553e-01 2.433205286236343579e+00
1.600000000000000000e+01 9.892057402058733739e-01 5.321201686990920665e-01 2.413630932609830193e+00
1.700000000000000000e+01 9.876426740752910494e-01 5.261992287202581497e-01 2.392704880113958765e+00
1.800000000000000000e+01 9.859554950557138930e-01 5.207495580582803818e-01 2.370783635213538521e+00
1.900000000000000000e+01 9.841413317725238308e-01 5.152610761875477952e-01 2.347798372338429473e+00
2.000000000000000000e+01 9.821974117942655624e-01 5.087140064599264822e-01 2.323484710874559767e+00
2.100000000000000000e+01 9.801210653351593027e-01 5.025780834338471337e-01 2.298289316226156398e+00
2.200000000000000000e+01 9.779097288494416063e-01 4.958426700933253883e-01 2.271908103221550235e+00
2.300000000000000000e+01 9.755609485130568581e-01 4.891363862035567611e-01 2.244583905312580008e+00
2.400000000000000355e+01 9.730723835883412498e-01 4.821663933783875700e-01 2.216238241269296694e+00
2.500000000000000000e+01 9.704418096674921612e-01 4.749307384134998644e-01 2.186887748720691693e+00
2.600000000000000000e+01 9.676671217907479861e-01 4.675864367323864235e-01 2.156621627010764097e+00
2.700000000000000000e+01 9.647463374353563159e-01 4.599554806284964492e-01 2.125403026575270360e+00
2.800000000000000000e+01 9.616775993715598325e-01 4.521961629386392345e-01 2.093284008687632536e+00
2.900000000000000355e+01 9.584591783819860211e-01 4.443761945490829479e-01 2.060413357566557746e+00
2.999999999999999645e+01 9.550894758409872454e-01 4.362608740202418844e-01 2.026575132104552424e+00
3.100000000000000000e+01 9.515670261506468108e-01 4.282090792112300814e-01 1.992167490749777281e+00
3.200000000000000000e+01 9.478904990303333999e-01 4.197073781662260528e-01 1.956725640647727138e+00
3.300000000000000000e+01 9.440587016568597889e-01 4.112191982514432076e-01 1.920650911425726859e+00
3.400000000000000000e+01 9.400705806524818353e-01 4.027153867213873473e-01 1.883997015843049461e+00
3.500000000000000000e+01 9.359252239181523603e-01 3.941082897270277163e-01 1.846682285867402129e+00
3.600000000000000000e+01 9.316218623096279572e-01 3.852906340839478694e-01 1.808644859790710768e+00
3.700000000000000000e+01 9.271598711542163862e-01 3.764151432841472689e-01 1.770089637394614224e+00
3.800000000000000000e+01 9.225387716061371757e-01 3.674968845998663469e-01 1.731014113714871350e+00
3.900000000000000000e+01 9.177582318386671156e-01 3.585672040315170395e-01 1.691553162478762529e+00
4.000000000000000000e+01 9.128180680714286233e-01 3.495575308794783842e-01 1.651614242205490246e+00
4.100000000000000000e+01 9.077182454313832416e-01 3.404614131803898602e-01 1.611186448360262480e+00
4.200000000000000000e+01 9.024588786462834911e-01 3.313432959853444548e-01 1.570432072962472558e+00
4.300000000000000000e+01 8.970402325695441270e-01 3.222221306817564801e-01 1.529353000137168905e+00
4.400000000000000000e+01 8.914627225356872575e-01 3.130472546060916739e-01 1.488007821134391229e+00
4.500000000000000000e+01 8.857269145457233872e-01 3.039191445213187404e-01 1.446483618456929854e+00
4.600000000000000000e+01 8.798335252820319585e-01 2.947909679452218046e-01 1.404751064484968115e+00
4.700000000000000000e+01 8.737834219525083546e-01 2.856207489466996985e-01 1.362805701711433670e+00
4.800000000000000711e+01 8.675776219639488307e-01 2.765115969245227623e-01 1.320785187059767107e+00
4.900000000000000000e+01 8.612172924248480133e-01 2.674308033428547948e-01 1.278780744890957610e+00
5.000000000000000000e+01 8.547037494779912148e-01 2.584121029245440848e-01 1.236801994779797242e+00
5.100000000000000000e+01 8.480384574634212136e-01 2.494298432084072481e-01 1.194836706599450071e+00
5.200000000000000000e+01 8.412230279125698651e-01 2.404785100908642947e-01 1.152906061404438853e+00
5.300000000000000000e+01 8.342592183745380918e-01 2.316278477136160807e-01 1.111216157265266569e+00
5.400000000000000000e+01 8.271489310757191848e-01 2.228210754634671054e-01 1.069614771750733162e+00
5.500000000000000000e+01 8.198942114141509752e-01 2.141099256753236091e-01 1.028274934074706159e+00
5.600000000000000000e+01 8.124972462901831616e-01 2.054583134465158833e-01 9.871766979100456973e-01
5.700000000000000711e+01 8.049603622752472543e-01 1.969475767869437455e-01 9.464682881633723621e-01
5.800000000000000711e+01 7.972860236207011120e-01 1.885095363987879524e-01 9.060277180463163216e-01
5.900000000000000711e+01 7.894768301089232221e-01 1.801518033462570501e-01 8.659871884471540548e-01
5.999999999999999289e+01 7.815355147490068433e-01 1.719454475378186520e-01 8.264324389197024168e-01
6.100000000000000000e+01 7.734649413196068579e-01 1.638747177183013937e-01 7.873984628467192159e-01
6.200000000000000000e+01 7.652681017616529413e-01 1.558948118419619389e-01 7.488183429315388162e-01
6.300000000000000000e+01 7.569481134238873477e-01 1.480382950167278278e-01 7.108197931231625688e-01
6.400000000000000000e+01 7.485082161642013787e-01 1.403313864165964542e-01 6.733899549838990861e-01
6.500000000000000000e+01 7.399517693101727023e-01 1.327892067865209802e-01 6.366834023890639571e-01
6.600000000000000000e+01 7.312822484820490354e-01 1.253780290931860997e-01 6.005916478826929250e-01
6.700000000000000000e+01 7.225032422821393574e-01 1.180924871904545648e-01 5.651755015814038385e-01
6.800000000000000000e+01 7.136184488536354564e-01 1.110000190395769581e-01 5.305722202907484641e-01
6.900000000000000000e+01 7.046316723137466820e-01 1.040270046855590602e-01 4.966747755509214879e-01
7.000000000000000000e+01 6.955468190643719906e-01 9.724473208608673536e-02 4.635888556674675476e-01
7.100000000000000000e+01 6.863678939849635618e-01 9.062489904687183462e-02 4.313594232697708919e-01
7.200000000000000000e+01 6.770989965117923948e-01 8.416359427798293658e-02 3.999499715426297897e-01
7.300000000000000000e+01 6.677443166081208359e-01 7.788542458943806257e-02 3.694313584983953680e-01
7.400000000000000000e+01 6.583081306298973479e-01 7.178127710530338157e-02 3.398538349225694311e-01
7.500000000000000000e+01 6.487947970917141705e-01 6.584833514524648934e-02 3.111642497712487354e-01
7.600000000000000000e+01 6.392087523378882086e-01 6.010799826828951836e-02 2.834355129557304398e-01
7.700000000000000000e+01 6.295545061236372808e-01 5.453904042003065306e-02 2.566352040520358813e-01
7.800000000000000000e+01 6.198366371114296669e-01 4.916261334570503488e-02 2.308352807990101119e-01
7.900000000000000000e+01 6.100597882878545652e-01 4.397631901120461345e-02 2.060328505080118167e-01
8.000000000000000000e+01 6.002286623057216941e-01 3.897626434852601712e-02 1.822157852307217940e-01
8.100000000000000000e+01 5.903480167577339621e-01 3.417507668751722238e-02 1.594338934147492837e-01
8.200000000000000000e+01 5.804226593862343853e-01 2.955921061984246451e-02 1.376430955298376946e-01
8.300000000000000000e+01 5.704574432351071644e-01 2.513768238141007860e-02 1.168772029150062092e-01
8.400000000000000000e+01 5.604572617492261655e-01 2.091828342702431454e-02 9.713462049985385760e-02
8.500000000000000000e+01 5.504270438273024535e-01 1.690059091935247962e-02 7.842144647790268153e-02
8.600000000000000000e+01 5.403717488334249808e-01 1.308372378228980261e-02 6.072559871378319096e-02
8.700000000000000000e+01 5.302963615736885350e-01 9.475790222031982638e-03 4.404151757585911264e-02
8.800000000000000000e+01 5.202058872431888359e-01 6.082720669336316201e-03 2.837061815182385927e-02
8.900000000000000000e+01 5.101053463493955276e-01 2.915402103798024093e-03 1.369562893176507444e-02
9.000000000000000000e+01 4.999997696179461215e-01 9.689345397090427756e-18 4.635669395005400427e-17
