# Anisotropy factors from He & Keek 2016 for case b in Fig. 8
# Columns: inclination angle (deg), 1/xi_d, 1/xi_r, 1/xi_p
# Note that 1/xi_b = 1/xi_d + 1/xi_r
0.000000000000000000e+00 9.999995392358922430e-01 3.534948771644323973e-01 2.142468362771044355e+00
1.000000000000000000e+00 9.999667997540085951e-01 3.534173203783817496e-01 2.141983447990977840e+00
2.000000000000000000e+00 9.998659808283443251e-01 3.531847848623476116e-01 2.140529189552053957e+00
3.000000000000000444e+00 9.996932006904302170e-01 3.527974621465845839e-01 2.138107044597862050e+00
4.000000000000000000e+00 9.994446066436437626e-01 3.522557239073310642e-01 2.134719439834916521e+00
5.000000000000000000e+00 9.991163798017661524e-01 3.515600839343355766e-01 2.130369768735811853e+00
6.000000000000000888e+00 9.987047398041843937e-01 3.507111947670612517e-01 2.125062387628304794e+00
7.000000000000000000e+00 9.982059495019741657e-01 3.497098594824376572e-01 2.118802610675067921e+00
8.000000000000000000e+00 9.976163196091285545e-01 3.485570233526286699e-01 2.111596703750137749e+00
9.000000000000000000e+00 9.969322133132376695e-01 3.472537739047012462e-01 2.103451877219390198e+00
1.000000000000000000e+01 9.961500508399659948e-01 3.458013400772805279e-01 2.094376277633737349e+00
1.100000000000000000e+01 9.952663139657242919e-01 3.442010908643059475e-01 2.084378978344983757e+00
1.200000000000000178e+01 9.942775504729938207e-01 3.424545340337664667e-01 2.073469969055673268e+00
1.300000000000000000e+01 9.931803785428223730e-01 3.405633144204752716e-01 2.061660144315385690e+00
1.400000000000000000e+01 9.919714910790836671e-01 3.385292121716358404e-01 2.048961290977394434e+00
1.499999999999999822e+01 9.906476599591704790e-01 3.363541395344738505e-01 2.035386074630659348e+00
1.600000000000000000e+01 9.892057402058733739e-01 3.340401385495272990e-01 2.020948025023511452e+00
1.700000000000000000e+01 9.876426740752910494e-01 3.315893852450560453e-01 2.005661520496459627e+00
1.800000000000000000e+01 9.859554950557138930e-01 3.290041771042568897e-01 1.989541771442879137e+00
1.900000000000000000e+01 9.841413317725238308e-01 3.262869370817554904e-01 1.972604802817376157e+00
2.000000000000000000e+01 9.821974117942655624e-01 3.234402110177095335e-01 1.954867435712859480e+00
2.100000000000000000e+01 9.801210653351593027e-01 3.204666607608506745e-01 1.936347268028405955e+00
2.200000000000000000e+01 9.779097288494416063e-01 3.173690660968488397e-01 1.917062654251137088e+00
2.300000000000000000e+01 9.755609485130568581e-01 3.141503180072636181e-01 1.897032684376349421e+00
2.400000000000000355e+01 9.730723835883412498e-01 3.108134179135230157e-01 1.876277161991194653e+00
2.500000000000000000e+01 9.704418096674921612e-01 3.073614747164860606e-01 1.854816581548233811e+00
2.600000000000000000e+01 9.676671217907479861e-01 3.037976978659044924e-01 1.832672104856083228e+00
2.700000000000000000e+01 9.647463374353563159e-01 3.001253966546713614e-01 1.809865536815348452e+00
2.800000000000000000e+01 9.616775993715598325e-01 2.963479792298693849e-01 1.786419300429007428e+00
2.900000000000000355e+01 9.584591783819860211e-01 2.924689445678067545e-01 1.762356411117135702e+00
2.999999999999999645e+01 9.550894758409872454e-01 2.884918803756749139e-01 1.737700450366810312e+00
3.100000000000000000e+01 9.515670261506468108e-01 2.844204594185054669e-01 1.712475538748764459e+00
3.200000000000000000e+01 9.478904990303333999e-01 2.802584360988401579e-01 1.686706308333153714e+00
3.300000000000000000e+01 9.440587016568597889e-01 2.760096408835907567e-01 1.660417874537481353e+00
3.400000000000000000e+01 9.400705806524818353e-01 2.716779801800750516e-01 1.633635807440389831e+00
3.500000000000000000e+01 9.359252239181523603e-01 2.672674273830352165e-01 1.606386102595746435e+00
3.600000000000000000e+01 9.316218623096279572e-01 2.627820228126103719e-01 1.578695151381912298e+00
3.700000000000000000e+01 9.271598711542163862e-01 2.582258670889615026e-01 1.550589710921763675e+00
3.800000000000000000e+01 9.225387716061371757e-01 2.536031195185718956e-01 1.522096873609447565e+00
3.900000000000000000e+01 9.177582318386671156e-01 2.489179909239423727e-01 1.493244036280344744e+00
4.000000000000000000e+01 9.128180680714286233e-01 2.441747427427901629e-01 1.464058869061180657e+00
4.100000000000000000e+01 9.077182454313832416e-01 2.393776810965910218e-01 1.434569283937505046e+00
4.200000000000000000e+01 9.024588786462834911e-01 2.345311519043490889e-01 1.404803403076177348e+00
4.300000000000000000e+01 8.970402325695441270e-01 2.296395397837621422e-01 1.374789526940728424e+00
4.400000000000000000e+01 8.914627225356872575e-01 2.247072635960365439e-01 1.344556102237722817e+00
4.500000000000000000e+01 8.857269145457233872e-01 2.197387713164815903e-01 1.314131689732431552e+00
4.600000000000000000e+01 8.798335252820319585e-01 2.147385338053860449e-01 1.283544931972292247e+00
4.700000000000000000e+01 8.737834219525083546e-01 2.097110496072029096e-01 1.252824520956672183e+00
4.800000000000000711e+01 8.675776219639488307e-01 2.046608364450180351e-01 1.221999165791596953e+00
4.900000000000000000e+01 8.612172924248480133e-01 1.995924232115758867e-01 1.191097560367999408e+00
5.000000000000000000e+01 8.547037494779912148e-01 1.945103602531932374e-01 1.160148351102116671e+00
5.100000000000000000e+01 8.480384574634212136e-01 1.894192093371311614e-01 1.129180104776462024e+00
5.200000000000000000e+01 8.412230279125698651e-01 1.843235372036352571e-01 1.098221276519754319e+00
5.300000000000000000e+01 8.342592183745380918e-01 1.792279327928779642e-01 1.067300177963953045e+00
5.400000000000000000e+01 8.271489310757191848e-01 1.741369862423452486e-01 1.036444945616343594e+00
5.500000000000000000e+01 8.198942114141509752e-01 1.685860227324622318e-01 1.005657259047346486e+00
5.600000000000000000e+01 8.124972462901831616e-01 1.631152550370733867e-01 9.749700732087275279e-01
5.700000000000000711e+01 8.049603622752472543e-01 1.576811405632015661e-01 9.444278298489232615e-01
5.800000000000000711e+01 7.972860236207011120e-01 1.520753985360436822e-01 9.139865129204065575e-01
5.900000000000000711e+01 7.894768301089232221e-01 1.465907056813608167e-01 8.837524283868749553e-01
5.999999999999999289e+01 7.815355147490068433e-01 1.410948151794811367e-01 8.537086586595067361e-01
6.100000000000000000e+01 7.734649413196068579e-01 1.355338562175154860e-01 8.238330330211992569e-01
6.200000000000000000e+01 7.652681017616529413e-01 1.300568086266951917e-01 7.942159369123275026e-01
6.300000000000000000e+01 7.569481134238873477e-01 1.246878495500528677e-01 7.649146930895081020e-01
6.400000000000000000e+01 0.000000000000000000e+00 1.346581061542943174e-03 3.177401419259374277e-02
6.500000000000000000e+01 0.000000000000000000e+00 4.484698773669953042e-04 1.107112079371078833e-02
6.600000000000000000e+01 0.000000000000000000e+00 2.539650424579185679e-04 6.351023228012244413e-03
6.700000000000000000e+01 0.000000000000000000e+00 1.692769861344297537e-04 4.259924956864882470e-03
6.800000000000000000e+01 0.000000000000000000e+00 1.221291910800208745e-04 3.084669834973704713e-03
6.900000000000000000e+01 0.000000000000000000e+00 9.231090454132877688e-05 2.336840068776773957e-03
7.000000000000000000e+01 0.000000000000000000e+00 7.186598216566089810e-05 1.821926284683621049e-03
7.100000000000000000e+01 0.000000000000000000e+00 5.717371403430300081e-05 1.450770384076012628e-03
7.200000000000000000e+01 0.000000000000000000e+00 4.608673655290933393e-05 1.170056135068211654e-03
7.300000000000000000e+01 0.000000000000000000e+00 3.749135563802182306e-05 9.520689559901009168e-04
7.400000000000000000e+01 0.000000000000000000e+00 3.072720966868957486e-05 7.803152867181833334e-04
7.500000000000000000e+01 0.000000000000000000e+00 2.524761408813445946e-05 6.410603823141239809e-04
7.600000000000000000e+01 0.000000000000000000e+00 2.082276104667664832e-05 5.285488488980857186e-04
7.700000000000000000e+01 0.000000000000000000e+00 1.715521617636655595e-05 4.352693860034925798e-04
7.800000000000000000e+01 0.000000000000000000e+00 1.408869078691300890e-05 3.572686344484297689e-04
7.900000000000000000e+01 0.000000000000000000e+00 1.156587861324890647e-05 2.931107161387099826e-04
8.000000000000000000e+01 0.000000000000000000e+00 9.426131034471522886e-06 2.387139409601085399e-04
8.100000000000000000e+01 0.000000000000000000e+00 7.623362419749224232e-06 1.929057676176702710e-04
8.200000000000000000e+01 0.000000000000000000e+00 6.088523333195675690e-06 1.539339373707051227e-04
8.300000000000000000e+01 0.000000000000000000e+00 4.783983541137007336e-06 1.208374228453460808e-04
8.400000000000000000e+01 0.000000000000000000e+00 3.705231403002789915e-06 9.349984280766710160e-05
8.500000000000000000e+01 0.000000000000000000e+00 2.767390973200989632e-06 6.975965029427465389e-05
8.600000000000000000e+01 0.000000000000000000e+00 1.996413766463427631e-06 5.027182924895868518e-05
8.700000000000000000e+01 0.000000000000000000e+00 1.321326398564302452e-06 3.323213716672225165e-05
8.800000000000000000e+01 0.000000000000000000e+00 7.844401982187971654e-07 1.970780019076478400e-05
8.900000000000000000e+01 0.000000000000000000e+00 3.349365362554294964e-07 8.407658669891611322e-06
9.000000000000000000e+01 0.000000000000000000e+00 0.000000000000000000e+00 0.000000000000000000e+00
