# time luminosity u_luminosity radius u_radius
-2.041245808437815867e+01 3.585289192219763050e+35 3.397080884860893977e+34 1.008365854423021432e+06 1.173190614700915546e+01
-1.951224187845946290e+01 3.587650445606082222e+35 3.247451915717691622e+34 1.008368287136701867e+06 1.250978425973793939e+01
-1.772081162869289983e+01 3.662380242286982389e+35 3.293190536371230764e+34 1.008372578748966800e+06 1.243370694120398134e+01
-1.415586543164681643e+01 3.845054149932458502e+35 3.427479190829389572e+34 1.008383364573528990e+06 1.230096014970199114e+01
-1.379142948972003069e+01 3.866992088365074955e+35 3.435851335263940462e+34 1.008384751088288613e+06 1.225617812203448409e+01
-1.306620196529547684e+01 3.912712109410750859e+35 3.457726779191438769e+34 1.008387725346995285e+06 1.221416254308078209e+01
-1.162299919169163331e+01 4.015155959479826589e+35 3.507509900940380971e+34 1.008395224832772859e+06 1.241116355240350799e+01
-9.984403893889975734e+00 4.155553197076558981e+35 3.578337891382784084e+34 1.008408508076805621e+06 1.323737872566929319e+01
-9.284997345792362466e+00 4.226205654080199367e+35 3.612639011935799499e+34 1.008418238944713143e+06 1.524258655440049104e+01
-8.734711227240040898e+00 4.287567368212249469e+35 3.649233796424694223e+34 1.008432853195956210e+06 2.662649571678933214e+01
-8.366169660366722383e+00 4.333295235208261831e+35 3.673660528574997657e+34 1.008464924849299947e+06 5.784248757596439816e+01
-8.078025367925874889e+00 4.409642267339414929e+35 3.709900857222769596e+34 1.008504871278919396e+06 9.671374966694737907e+01
-7.807966527296230197e+00 5.012538049644448924e+35 1.501512463104625510e+35 1.008562587898603990e+06 1.525794016578611831e+02
-7.784664499878999777e+00 5.130283259628161610e+35 1.753566900865831409e+35 1.008569010454038973e+06 1.587060166852160705e+02
-7.738293465314200148e+00 5.413456248833719352e+35 2.343332537202989539e+35 1.008582813695900841e+06 1.715926169738017393e+02
-7.663603177512413822e+00 6.045732885666377984e+35 3.565631222728463443e+35 1.008607639424020192e+06 1.945822250898905850e+02
-7.514969504787586629e+00 8.364378602323999311e+35 7.472520883466589825e+35 1.008675609812368522e+06 2.452039345667224097e+02
-7.405894116585841402e+00 1.149044932792993068e+36 1.220246998080120607e+36 1.008754887588366866e+06 2.821068391546492649e+02
-7.326131334368255921e+00 1.511545872509733818e+36 1.710786242053658544e+36 1.008832207010829006e+06 3.043170993613027804e+02
-7.260055781312985346e+00 1.981141863421826793e+36 2.223131014278284950e+36 1.008897864601851441e+06 3.319053481045814920e+02
-7.201515043954714201e+00 2.567081456795830594e+36 2.806179999244142123e+36 1.008959416253399453e+06 3.590915761938907167e+02
-7.164458645798731595e+00 3.029796268559533118e+36 3.253083228118694221e+36 1.009000440153095871e+06 3.770601000323224525e+02
-7.135823294433066621e+00 3.453309244624529686e+36 3.634320162254921886e+36 1.009041223044280661e+06 3.810903709062710050e+02
-7.108631005219649523e+00 3.919325720484539948e+36 4.028436496662320188e+36 1.009080354061067221e+06 3.869061549248196457e+02
-7.067683248256798834e+00 4.732343463440557824e+36 4.681436681039983873e+36 1.009135397278168122e+06 4.019810989010519506e+02
-7.035914215695811436e+00 5.457184545848428632e+36 5.247826257986905087e+36 1.009177585875157616e+06 4.151862439184179152e+02
-7.007201860586064868e+00 6.187280907329981779e+36 5.801085336121372894e+36 1.009215936931633973e+06 4.275315815974052498e+02
-6.978722647909307852e+00 6.986218188196519286e+36 6.379174751666792836e+36 1.009254217158433865e+06 4.400541047586103787e+02
-6.955687485067755915e+00 7.683462234497179421e+36 6.862792455920071255e+36 1.009285188368577743e+06 4.504435182869311802e+02
-6.933045518919243477e+00 8.417261211573770837e+36 7.355881789677807854e+36 1.009315544089870411e+06 4.608239070074461665e+02
-6.913261220455751754e+00 9.093046666524366200e+36 7.800224640553104989e+36 1.009342015345283900e+06 4.699686262379699997e+02
-6.893859134608646855e+00 9.785710097139610561e+36 8.249152784713700930e+36 1.009368408340239897e+06 4.780933145827021349e+02
-6.875290609983494505e+00 1.047975918411670318e+37 8.690670462727394422e+36 1.009401388500544126e+06 4.722581641559821719e+02
-6.859995502716628835e+00 1.107088315613157921e+37 9.060685332158317624e+36 1.009427183848405606e+06 4.704756991834022415e+02
-6.847031001088907942e+00 1.158886299264324864e+37 9.380182325704648717e+36 1.009447245764883468e+06 4.720248035765259260e+02
-6.834662291716085747e+00 1.209562858726010991e+37 9.689911151963915647e+36 1.009465677434080048e+06 4.746088396165122845e+02
-6.824594408928533085e+00 1.251362568295288134e+37 9.945001514168268525e+36 1.009480491418388439e+06 4.770236976173813446e+02
-6.812326047409442253e+00 1.303885951079323436e+37 1.025863678541875206e+37 1.009498382677562651e+06 4.801616758907890130e+02
-6.800633586535695940e+00 1.355016761294536490e+37 1.056007462238443653e+37 1.009515323729462107e+06 4.833003931407021696e+02
-6.788528798322658986e+00 1.408910558158026369e+37 1.087590675216414837e+37 1.009532775453671697e+06 4.866701457504123596e+02
-6.775628969233366661e+00 1.467566338158128320e+37 1.121696007319424524e+37 1.009551317984028836e+06 4.902821554324356725e+02
-6.761507478688145056e+00 1.533654457534705496e+37 1.158958585346804271e+37 1.009571611139291665e+06 4.941966341061098547e+02
-6.745534009562106803e+00 1.610113698634245617e+37 1.201422896435210979e+37 1.009594617975852685e+06 4.984895990061716589e+02
-6.743779490658198483e+00 1.618625239488980649e+37 1.206117190862372901e+37 1.009597146201507887e+06 4.989537577993227728e+02
-6.740287998036365025e+00 1.635682913330226434e+37 1.215430807652100378e+37 1.009602178788816207e+06 4.998690809528047225e+02
-6.733339927726774476e+00 1.669967971676760737e+37 1.233892006206888956e+37 1.009612208574506221e+06 5.016543252480486217e+02
-6.732217994198435917e+00 1.675548722083691736e+37 1.236866229208880701e+37 1.009613831183170085e+06 5.019370294816774845e+02
-6.729985346479224972e+00 1.686679514798856375e+37 1.242759972284371269e+37 1.009617066171935876e+06 5.024894320378434145e+02
-6.725542377505917102e+00 1.708986143591801801e+37 1.254502563562793234e+37 1.009623531146505731e+06 5.035074369917537069e+02
-6.725493211284629069e+00 1.709129023122379807e+37 1.254771547381857591e+37 1.009623609019455849e+06 5.035047286864297575e+02
-6.725413137857685797e+00 1.709535067611548353e+37 1.254980766231375609e+37 1.009623728092591045e+06 5.035171217921953257e+02
-6.725253791722934693e+00 1.710336649198444473e+37 1.255405665645211217e+37 1.009623963877677103e+06 5.035443280496388070e+02
-6.725039389872108586e+00 1.711412306715076421e+37 1.255981257069879409e+37 1.009624282683858299e+06 5.035775795746505992e+02
-6.724733491995721124e+00 1.712947002501416508e+37 1.256802644531859587e+37 1.009624737734671915e+06 5.036246306646875155e+02
-6.724199077012599446e+00 1.715631435773969184e+37 1.258233895046395986e+37 1.009625530421011266e+06 5.037122667835063226e+02
-6.723135591193567961e+00 1.720980678373776918e+37 1.261074386971379941e+37 1.009627109928810038e+06 5.038829103882914637e+02
-6.722359839477576315e+00 1.724879046760576922e+37 1.263152569288967072e+37 1.009628273109457688e+06 5.039837595389805642e+02
-6.722001458692830056e+00 1.726677857363646842e+37 1.264115908783014902e+37 1.009628812556832680e+06 5.040259090712314105e+02
-6.721708632685476914e+00 1.728149768077727829e+37 1.264900396380908428e+37 1.009629252485428122e+06 5.040622130215143102e+02
-6.721347062135464512e+00 1.729967204619883993e+37 1.265869321366564744e+37 1.009629797318970086e+06 5.041035569174819670e+02
-6.720962626015534624e+00 1.731899581733671983e+37 1.266899799851994366e+37 1.009630378215914941e+06 5.041440803816558400e+02
-6.720537851506378502e+00 1.734034717992487467e+37 1.268038752920881264e+37 1.009631022269285051e+06 5.041841403048458119e+02
-6.720028931420529261e+00 1.736592806130708704e+37 1.269403810726998298e+37 1.009631797871015267e+06 5.042236253429489921e+02
-6.719360120914643630e+00 1.739990860126851635e+37 1.271150355749595929e+37 1.009632828030984849e+06 5.042520630535497048e+02
-6.718672867398709059e+00 1.743535835739675715e+37 1.272875378718434856e+37 1.009633897816356854e+06 5.042574234547745391e+02
-6.718608670853427611e+00 1.743728587061486085e+37 1.273220372337007131e+37 1.009634022030044231e+06 5.042053239396139475e+02
-6.718541714872117154e+00 1.744065926198759354e+37 1.273399432615221156e+37 1.009634156709542847e+06 5.041398510876026080e+02
-6.718491549429018050e+00 1.744319661518490282e+37 1.273533333025591083e+37 1.009634263640368357e+06 5.040775981418100287e+02
-6.718457677328842692e+00 1.744486614828248779e+37 1.273629555397794665e+37 1.009634336868041079e+06 5.040333491715580294e+02
-6.718429361339076422e+00 1.744625078313654842e+37 1.273711463952933749e+37 1.009634395754960482e+06 5.040014089044963725e+02
-6.718399544944986701e+00 1.744775887083478820e+37 1.273791058075578850e+37 1.009634455413363758e+06 5.039728673109902957e+02
-6.718367497000144795e+00 1.744942743741071348e+37 1.273870283369800673e+37 1.009634518638457870e+06 5.039441388952042757e+02
-6.718336454665404744e+00 1.745099751867600661e+37 1.273953155782030850e+37 1.009634579977326910e+06 5.039161042342343535e+02
-6.718308345371042378e+00 1.745237163477551951e+37 1.274034528929253076e+37 1.009634635347935371e+06 5.038910954103337758e+02
-6.718281847090111114e+00 1.745371189928606065e+37 1.274105271496318546e+37 1.009634686730839545e+06 5.038692852256994001e+02
-6.718254624691326171e+00 1.745508877360404141e+37 1.274177950841605356e+37 1.009634738503118162e+06 5.038490778520016420e+02
-6.718225365693797357e+00 1.745656864509551914e+37 1.274256070814700729e+37 1.009634793300498277e+06 5.038291966643030264e+02
-6.718193699824041687e+00 1.745821788166156573e+37 1.274334287346509036e+37 1.009634851932563470e+06 5.038091388480992805e+02
-6.718158899093396030e+00 1.745997803641555594e+37 1.274427209005353281e+37 1.009634915631895186e+06 5.037886931539079569e+02
-6.718118418226367794e+00 1.746202547174362629e+37 1.274535301735458515e+37 1.009634988725216826e+06 5.037670834699979423e+02
-6.718066439265385270e+00 1.746469826190095214e+37 1.274668278025769669e+37 1.009635081244877889e+06 5.037422281217171189e+02
-6.717989740893244743e+00 1.746862052050457239e+37 1.274867377129239807e+37 1.009635215938993148e+06 5.037095071417217582e+02
-6.717849429915077053e+00 1.747573833480274270e+37 1.275239283659021610e+37 1.009635459812438814e+06 5.036551486219680669e+02
-6.717660954149323516e+00 1.748527080296776898e+37 1.275742734152250621e+37 1.009635793478909298e+06 5.035690272070360720e+02
-6.717459113046061248e+00 1.749547940390665778e+37 1.276281946599663576e+37 1.009636158951521153e+06 5.034592555865138479e+02
-6.717331265987013467e+00 1.750194594841958280e+37 1.276623480681471551e+37 1.009636403987068450e+06 5.033605087746857976e+02
-6.717282201076159254e+00 1.750436367242503541e+37 1.276763076544935762e+37 1.009636499236085103e+06 5.033200125836403913e+02
-6.717201925202971324e+00 1.750846689291894679e+37 1.276971853958941723e+37 1.009636644260484143e+06 5.032771229923609440e+02
-6.717042176227550954e+00 1.751656764755029642e+37 1.277395961488582538e+37 1.009636933953789645e+06 5.031894439697505277e+02
-6.716728914834675379e+00 1.753241077648986185e+37 1.278233378156641903e+37 1.009637514055775129e+06 5.029917110811942962e+02
-6.716541072615655139e+00 1.754191205986583874e+37 1.278735459166928414e+37 1.009637882986731129e+06 5.028278085705252920e+02
-6.716432797285960987e+00 1.754738912596203297e+37 1.279024850657198281e+37 1.009638096023260034e+06 5.027325765169501324e+02
-6.716329957140260376e+00 1.755259072838028841e+37 1.279299807912292490e+37 1.009638293844822678e+06 5.026519031446008512e+02
-6.716208470985293388e+00 1.755873492733770338e+37 1.279624713770065430e+37 1.009638541815728531e+06 5.025258987467678367e+02
-6.716187235811958089e+00 1.755965395994372819e+37 1.279702142108347423e+37 1.009638588128559059e+06 5.024974911286076349e+02
-6.716144977806834504e+00 1.756183881919507487e+37 1.279808822225887493e+37 1.009638669170840643e+06 5.024649023506635217e+02
-6.716060884369653650e+00 1.756617877764982001e+37 1.280022179499028065e+37 1.009638827231341042e+06 5.024069817552282871e+02
-6.715916290500899777e+00 1.757351220457539993e+37 1.280406304721148754e+37 1.009639201039511594e+06 5.020880654083301806e+02
-6.715875888214213774e+00 1.757545754871278837e+37 1.280528291486980873e+37 1.009639324498487636e+06 5.019581414342789003e+02
-6.715854199370369315e+00 1.757651202178495311e+37 1.280592424266309575e+37 1.009639382946514525e+06 5.019052324075926208e+02
-6.715818897471763194e+00 1.757835255336273830e+37 1.280680265319360209e+37 1.009639467230654322e+06 5.018424316446422040e+02
-6.715748646689462475e+00 1.758196679951528483e+37 1.280861919916491961e+37 1.009639620772445691e+06 5.017479131984944161e+02
-6.715716376493219286e+00 1.758356681557506522e+37 1.280953856736646632e+37 1.009639694254200556e+06 5.016981343290738664e+02
-6.715652158804005012e+00 1.758688075186749054e+37 1.281119511165447587e+37 1.009639830013066297e+06 5.016215654454556443e+02
-6.715524365616147406e+00 1.759345276940436769e+37 1.281452214043695124e+37 1.009640092067477643e+06 5.014866512467401662e+02
-6.715298240611446090e+00 1.760496768935956248e+37 1.282056190710031349e+37 1.009640549744006013e+06 5.012610271099732699e+02
-6.715212231181794778e+00 1.760932751803335466e+37 1.282288615908776415e+37 1.009640741880665882e+06 5.011366139275480123e+02
-6.715155363825033419e+00 1.761218096625657515e+37 1.282446185884315903e+37 1.009640861863871687e+06 5.010694886992790771e+02
-6.715056065047974698e+00 1.761728069390946554e+37 1.282705722924539439e+37 1.009641062179246102e+06 5.009719971645943133e+02
-6.714858460472896695e+00 1.762736460837253265e+37 1.283230864827242140e+37 1.009641455123379943e+06 5.007902773443453270e+02
-6.714609930641017854e+00 1.764002087855450174e+37 1.283894976693607258e+37 1.009641954254576005e+06 5.005514478326338690e+02
-6.714438435519696213e+00 1.764875504407341502e+37 1.284353200259039446e+37 1.009642313045096933e+06 5.003561343318553440e+02
-6.714372565489611588e+00 1.765204609752392866e+37 1.284537709843894449e+37 1.009642458014492528e+06 5.002658847433417577e+02
-6.714317390418727882e+00 1.765485621079615228e+37 1.284685145122308840e+37 1.009642572239540401e+06 5.002056880611372094e+02
-6.714210637932410464e+00 1.766035684777988838e+37 1.284961930393212137e+37 1.009642785415558843e+06 5.001059548851626460e+02
-6.713998200488276780e+00 1.767117467519937957e+37 1.285529935252658007e+37 1.009643205301822512e+06 4.999168666501784060e+02
-6.713764318570611067e+00 1.768308760439164219e+37 1.286154982486876454e+37 1.009643677297947812e+06 4.996882258718235335e+02
-6.713627182602067478e+00 1.769008074474429915e+37 1.286520489024943446e+37 1.009643967074575950e+06 4.995266521821425840e+02
-6.713553551628137939e+00 1.769377130603292100e+37 1.286725320702189067e+37 1.009644122668400290e+06 4.994399352182699658e+02
-6.713480399077525362e+00 1.769750136644350790e+37 1.286920360145531052e+37 1.009644271727375453e+06 4.993655586076890245e+02
-6.713365274728857912e+00 1.770343560861834377e+37 1.287218778819278712e+37 1.009644501231609262e+06 4.992593529311607199e+02
-6.713196784738101996e+00 1.771202626735961867e+37 1.287668177416255269e+37 1.009644836332580307e+06 4.991056946912639205e+02
-6.713029178848955780e+00 1.772057223267205269e+37 1.288115224573211627e+37 1.009645175647582626e+06 4.989402878276000024e+02
-6.712911819297005422e+00 1.772655667278352589e+37 1.288428225240663591e+37 1.009645418445428018e+06 4.988135078823207209e+02
-6.712824220827315003e+00 1.773100283587745255e+37 1.288664635725610029e+37 1.009645598440249101e+06 4.987215754584234446e+02
-6.712728371683624573e+00 1.773589128005786867e+37 1.288920192596030811e+37 1.009645791980787297e+06 4.986282754699431052e+02
-6.712606413071625866e+00 1.774213256266501954e+37 1.289242556287798544e+37 1.009646037269930472e+06 4.985116820307220564e+02
-6.712552036507986486e+00 1.774484191474519194e+37 1.289396099956228898e+37 1.009646151788280578e+06 4.984488057033023551e+02
-6.712471759703475982e+00 1.774897906973002622e+37 1.289604446295121920e+37 1.009646314619564451e+06 4.983692107941113250e+02
-6.712347770400810987e+00 1.775532378368864693e+37 1.289932307614571664e+37 1.009646562954160734e+06 4.982530266350431134e+02
-6.712196951426449232e+00 1.776301554893430742e+37 1.290334611429488906e+37 1.009646866214088048e+06 4.981092792723428602e+02
-6.712058950011851266e+00 1.777005393465569086e+37 1.290702723314313605e+37 1.009647146730990265e+06 4.979714357830146696e+02
-6.711941338857286610e+00 1.777605249789320394e+37 1.291016458817397190e+37 1.009647386211355915e+06 4.978531655230491424e+02
-6.711824668003828265e+00 1.778200294329025742e+37 1.291327735110477726e+37 1.009647622343586409e+06 4.977389359987629405e+02
-6.711697619786718860e+00 1.778848254221922593e+37 1.291666744611766216e+37 1.009647878264737432e+06 4.976171825079471205e+02
-6.711561195392278023e+00 1.779544034135182169e+37 1.292030808936081122e+37 1.009648152571730549e+06 4.974875840376363385e+02
-6.711419553583255038e+00 1.780268021912708241e+37 1.292407827680857202e+37 1.009648437131225481e+06 4.973535782218443160e+02
-6.711278313596267253e+00 1.780991166188644540e+37 1.292783053473953276e+37 1.009648721707225544e+06 4.972182756243610697e+02
-6.711169031696044840e+00 1.781550714274495688e+37 1.293073368054086808e+37 1.009648943438485963e+06 4.971103966761777428e+02
-6.711092067751451395e+00 1.781942656702349712e+37 1.293280692355308443e+37 1.009649100023312261e+06 4.970335588632461850e+02
-6.710967343373340555e+00 1.782583340504933691e+37 1.293609315864648548e+37 1.009649351573580992e+06 4.969137395377603639e+02
-6.710814355494221672e+00 1.783366609350285717e+37 1.294015927907609137e+37 1.009649659138886374e+06 4.967689460920369697e+02
-6.710634321832912974e+00 1.784288352402481302e+37 1.294494477123006191e+37 1.009650020861758036e+06 4.965991452247541247e+02
-6.710450900107389316e+00 1.785227463086263929e+37 1.294982071836089299e+37 1.009650390003621462e+06 4.964250174278172949e+02
-6.710265959467506036e+00 1.786174889421285427e+37 1.295473418573418338e+37 1.009650762328532524e+06 4.962493206569110384e+02
-6.710076841947739013e+00 1.787146468323861607e+37 1.295974127697427264e+37 1.009651142727753147e+06 4.960704164668726435e+02
-6.709880721697118133e+00 1.788154019285638043e+37 1.296493460081315436e+37 1.009651537810050533e+06 4.958838117600872124e+02
-6.709683936191140674e+00 1.789167252992862108e+37 1.297015329228767251e+37 1.009651934295753133e+06 4.956962459600601960e+02
-6.709480614401400089e+00 1.790214319890711278e+37 1.297554679568690974e+37 1.009652343868212192e+06 4.955027845845165189e+02
-6.709268859995063394e+00 1.791304811041631866e+37 1.298116491827097413e+37 1.009652770566379768e+06 4.953012168889597433e+02
-6.709047203956288286e+00 1.792449810817861144e+37 1.298707206492733177e+37 1.009653217770439340e+06 4.950888311858892052e+02
-6.708814186567906290e+00 1.793654888024941908e+37 1.299328747949306934e+37 1.009653688439109363e+06 4.948634654395215762e+02
-6.708562183863250539e+00 1.794959113900502254e+37 1.299999816587901398e+37 1.009654200421722839e+06 4.946139334320004650e+02
-6.708297140459762886e+00 1.796330840211878627e+37 1.300705744226196302e+37 1.009654740602796897e+06 4.943482907306382685e+02
-6.708040122786769643e+00 1.797661049792646124e+37 1.301390409857401896e+37 1.009655265589689603e+06 4.940886242556720163e+02
-6.707739233446773142e+00 1.799218270063138151e+37 1.302192187542217629e+37 1.009655880061624805e+06 4.937853435226445526e+02
-6.707613303631660528e+00 1.799870194052095826e+37 1.302527556168506159e+37 1.009656138430224382e+06 4.936560733795915326e+02
-6.707362703295075335e+00 1.801167067217057383e+37 1.303195649983264588e+37 1.009656646942563704e+06 4.934107721230391235e+02
